,"Energy, MeV","IFlux, cm-2"
0,0.1,1947533335999998.8
1,0.10115919673599612,1914362757312502.8
2,0.10233183084271966,1881383157342830.0
3,0.10351805808573353,1848600007139089.0
4,0.10471803603622992,1816018742206116.8
5,0.10593192409196112,1783644758908816.0
6,0.10715988349841302,1751483410841879.2
7,0.10840207737022386,1719540005168854.8
8,0.10965867071285146,1687819798934054.8
9,0.11092983044449156,1656329786734713.8
10,0.11221572541825015,1625073983330494.8
11,0.11351652644457284,1594056811133213.5
12,0.1148324063139345,1563283288976107.0
13,0.11616353981979143,1532758366845472.8
14,0.11751010378179998,1502486922107976.0
15,0.11887227706930426,1472473755738349.2
16,0.12025024062509589,1442724157763081.8
17,0.12164417748944946,1413244775403804.2
18,0.12305427282443648,1384037577184626.2
19,0.1244807139385211,1355107020404177.0
20,0.12592369031144107,1326457467261316.5
21,0.12738339361937717,1298093181181714.8
22,0.1288600177604141,1270018323178205.2
23,0.1303537588802968,1242236948250082.0
24,0.13186481539848544,1214753001826545.0
25,0.13339338803451198,1187570316259777.0
26,0.13493967983464267,1160692607372910.5
27,0.13650389619884945,1134123471068549.8
28,0.138086244908094,1107866380003098.2
29,0.13968693615192823,1081924680332728.6
30,0.1413061825564144,1056304675317132.5
31,0.14294419921236906,1031007103759286.0
32,0.1446012037039346,1006034168596895.6
33,0.1462774161374817,981388678377115.2
34,0.1479730591708468,957073300134278.0
35,0.14968835804290886,933090556682768.1
36,0.15142354060350846,909441704784648.1
37,0.1531788373437141,886129893833833.4
38,0.1549544814264392,863157449789677.9
39,0.1567507087174142,840526293276332.2
40,0.1585677578165172,818238188902075.5
41,0.1604058700894685,796295448024858.2
42,0.1622652896998918,774701312926617.5
43,0.1641462636417476,753454566672312.8
44,0.16604904177214228,732556331072454.0
45,0.16797387684451778,712007563580490.0
46,0.16992102454222552,691809056092198.8
47,0.17189074351249017,671961433910707.6
48,0.1738832954007664,652465154881042.0
49,0.1758989448854946,633320508698179.2
50,0.17793795971325882,614527616392066.8
51,0.180000610734353,596086430772716.2
52,0.18208717193875865,577999381061616.8
53,0.18419792049254038,560263432385375.4
54,0.18633313677466265,542878029146376.8
55,0.18849310441423373,525842447261734.56
56,0.19067811032818124,509155794770822.1
57,0.1928884447593646,492817012637136.56
58,0.19512440131512876,476824875745790.75
59,0.1973862770063057,461177994097340.7
60,0.19967437228666707,445874814198602.6
61,0.20198899109283486,435275757751285.25
62,0.20433044088465444,425520530172679.1
63,0.20669903268603584,415875698471930.06
64,0.20909508112626787,406342538707320.44
65,0.211518904481812,396922282023550.2
66,0.21397082471857992,387616113491856.56
67,0.21645116753470167,378425170978820.5
68,0.21896026240378938,369350544045919.0
69,0.22149844261870263,360394589013802.06
70,0.2240660453358208,351557897373636.56
71,0.22666341161982925,342840488481425.9
72,0.22929088648902377,334243247963809.94
73,0.23194881896114108,325767008164670.4
74,0.23463756209972012,317412547271286.4
75,0.23735747306100094,309180588485184.94
76,0.24010891314136687,301071799239646.7
77,0.24289224782533736,293086790465681.56
78,0.24570784683411628,285226115908372.8
79,0.2485560841747037,277490271495368.38
80,0.2514373381895766,269880873175830.22
81,0.25435199160694566,262398310848941.28
82,0.25730043159159444,255041712430448.06
83,0.2602830497963081,247811336941865.8
84,0.2633002424138981,240707383264019.97
85,0.26635241022982986,233729989853079.9
86,0.269439958675461,226879234519650.25
87,0.2725632978818962,220155134272164.88
88,0.27572284273446646,213557645225765.25
89,0.2789190129278401,207086662577702.06
90,0.2821522330217722,200743520316660.5
91,0.2854229324975008,194527249062032.0
92,0.28873154581479615,188436803684003.0
93,0.2920785124696724,182471836422646.7
94,0.2954642770527668,176631939498144.6
95,0.29888928930839703,170916645501670.7
96,0.302354004194302,165325593291521.8
97,0.3058588819420759,159858099281241.72
98,0.30940438811830256,154513439797252.6
99,0.3129909936863986,149290914552402.22
100,0.3166191750691732,144189766652297.16
101,0.3202894142121129,139209340474982.9
102,0.32400219864740076,134350456125274.3
103,0.327758021558677,129610345921666.34
104,0.33155738184655065,124988035018351.83
105,0.33540078419487007,120482496715095.22
106,0.3392887391377623,116092653609959.98
107,0.3432217631274496,111817378816198.77
108,0.34720037860285136,107655497241816.47
109,0.3512251140589817,103606320311076.28
110,0.3552965041171521,99669272776328.45
111,0.35941508959598645,95841816859916.78
112,0.3635814175832605,92122598328049.92
113,0.3677960415085741,88510222010749.08
114,0.3720595212168644,85003253417313.6
115,0.376372423042773,81600220399728.1
116,0.3807353198858744,78299614861357.55
117,0.3851487912867758,75099894508122.03
118,0.3896134235041005,71999484639251.38
119,0.39412980959236277,68996779974576.28
120,0.3986985494807452,66090146515219.695
121,0.40332025005278976,63595776510997.6
122,0.4079955252270131,61292572023281.05
123,0.41272499603845486,59050072953271.78
124,0.4175092907211726,56867631325416.79
125,0.422349044791693,54744574715869.07
126,0.4272449011334291,52680207025254.85
127,0.4321975100820776,50673809281137.56
128,0.4372075295120055,48724640468994.33
129,0.4422756249236379,46831938390437.91
130,0.4474024695318591,44994920547346.54
131,0.45258874435543844,43213611908210.414
132,0.4578351383074925,41487199091503.69
133,0.46314234828699613,39814009327207.01
134,0.46851107927135477,38193187930124.016
135,0.47394204441004856,36623864667898.61
136,0.479435965119363,35105154768690.777
137,0.4849935711782181,33636159943552.336
138,0.490615600825107,32215969421677.277
139,0.4963028008561593,30843660996660.16
140,0.5020559267243412,29518803974043.758
141,0.5078757426398048,28240860042634.055
142,0.5137630216714014,27007970091192.684
143,0.5197185458493714,25819176658701.01
144,0.5257431062692237,24673516171194.82
145,0.5318375031968211,23570020012913.465
146,0.5380025461746819,22507715594584.0
147,0.5442390541295148,21485627416809.32
148,0.5505478554810002,20502902120553.133
149,0.5569297882518326,19559748696441.66
150,0.5633857001790379,18653877461229.992
151,0.5699164488265821,17784311489366.363
152,0.5765229016992848,16950076113912.541
153,0.5832059363580531,16150199918615.887
154,0.589966440536451,15383715711352.854
155,0.5968053122586221,14649661477125.6
156,0.6037234599585755,13936992647751.342
157,0.610721802600858,13247613256691.393
158,0.6178012698026237,12589636309976.621
159,0.6249628019571184,11962020127720.174
160,0.632207350358595,11364211110105.46
161,0.6395358773286794,10795809256591.68
162,0.6469493563441976,10254723967336.662
163,0.6544487721664872,9739970483362.324
164,0.6620351209722078,9250580201427.707
165,0.6697094104856657,8785601335093.173
166,0.6774726601126742,8344099532753.692
167,0.6853259010759664,7925158451983.4795
168,0.693270176552175,7527880289664.262
169,0.7013065418104022,7149154857506.399
170,0.7094360643523956,6779785816354.184
171,0.7176598240543479,6432396007561.317
172,0.7259789133103413,6104855590066.681
173,0.7343944371774548,5796152370563.627
174,0.7429075135225529,5505395780259.711
175,0.7515192731707762,5231722158948.958
176,0.7602308600557536,4974294796457.669
177,0.7690434313715551,4732303923482.852
178,0.7779581577264065,4504966653209.6455
179,0.7869762232981865,4291526875216.8755
180,0.7960988259917247,4091255103294.45
181,0.8053271775979239,3904180861621.157
182,0.8146625039547287,3729433779805.286
183,0.8241060451099562,3565822987569.468
184,0.8336590554860174,3412722887375.0757
185,0.8433228040465474,3269533113685.5747
186,0.8530985744649658,3135678143762.2217
187,0.8629876652949929,3010606876249.008
188,0.8729913901431416,2893792179777.2637
189,0.8831110778432081,2784730413853.351
190,0.8933480726327865,2682940924316.1265
191,0.90370373433183,2588377551852.1865
192,0.9141794385232797,2500935885765.176
193,0.924776576735789,2419456347197.8545
194,0.9354965566285668,2343544547784.3677
195,0.946340802178361,2272826258300.4688
196,0.9573107538686121,2206946799668.4414
197,0.9684078688807969,2145570424393.5225
198,0.9796336212879925,2088379690568.8472
199,0.9909895022506834,2035074830529.1504
200,1.0024770202148372,1985430851917.7168
201,1.014097701112279,1939414166731.2317
202,1.025853088563384,1896602259163.842
203,1.0377447440821261,1856744699563.2134
204,1.0497742472834974,1819606957901.494
205,1.0619431960933357,1784969683293.92
206,1.074253206960582,1752627994527.8066
207,1.0867059150720026,1722390783083.9592
208,1.099302974569394,1694080030011.8315
209,1.1120460587693108,1668312220182.6792
210,1.124936860385338,1644196557924.9885
211,1.1379770917529421,1621544680591.351
212,1.1511684850569253,1600224265994.9795
213,1.164512792561521,1580112910353.0466
214,1.1780117868431514,1561097550094.8003
215,1.191667261025887,1543073903682.326
216,1.2054810290196334,1526328351694.093
217,1.2194549257610814,1510974732726.3171
218,1.233590807457447,1496347013894.071
219,1.247890551833042,1482370703913.2
220,1.2623560583786946,1468977610886.6968
221,1.2769892486040697,1456105409419.9333
222,1.2917920662929094,1443697228604.9727
223,1.3067664777612338,1431701260649.1729
224,1.3219144721185327,1420070389853.6008
225,1.3372380615319912,1408761841582.4646
226,1.3527392814937678,1397736850806.8086
227,1.368420191091381,1386960349753.6313
228,1.384282873281224,1376400674145.3533
229,1.4003294351652533,1366053021912.246
230,1.416562008270881,1357006560761.1636
231,1.4329827488341182,1348098911778.5527
232,1.4495938380859907,1339309231090.3318
233,1.4663974825422845,1330618864362.6926
234,1.483395914296644,1322011151920.3015
235,1.5005913913170703,1309000760207.0955
236,1.517986197745856,1301156383058.3218
237,1.5355826442029974,1293268902146.8145
238,1.5533830680931215,1285338636384.358
239,1.5713898339159733,1277365918901.8452
240,1.5896053335805023,1269351097234.463
241,1.6080319867225876,1261720104571.0256
242,1.6266722410264485,1254601297355.5276
243,1.6455285725497821,1247440834697.862
244,1.6646034860526626,1240238947963.7915
245,1.6838995153302627,1232995880877.2607
246,1.7034192235494257,1225711889702.0947
247,1.7231652035891412,1218387243422.456
248,1.7431400783849664,1211022223921.8254
249,1.7633465012774452,1203617126160.392
250,1.783787156364555,1196172258350.645
251,1.804464758858251,1188862953061.0718
252,1.825382055445136,1182153489915.495
253,1.846541824651315,1175404776503.0938
254,1.8679468772114753,1168617031115.9624
255,1.8896000564422522,1161790483696.0608
256,1.9115042386199117,1154925376006.4453
257,1.9336623333624212,1148021961801.2698
258,1.9560772840159446,1141080506994.452
259,1.9787520680458182,1134101289826.7795
260,2.001689697432061,1127133479748.084
261,2.024893219069464,1120746548891.627
262,2.048365715172324,1114322403573.002
263,2.072110303683865,1107861255047.7673
264,2.0961301386904077,1101363325695.9592
265,2.120428410840337,1094828849184.3531
266,2.1450083477679325,1088258070627.5278
267,2.1698732145221027,1081651246747.5735
268,2.195026314000097,1075008646032.3276
269,2.220470987386242,1068888130004.8534
270,2.246210614595764,1062868416341.752
271,2.2722486147237553,1056813414897.6958
272,2.2985884464993505,1050723319838.1179
273,2.3252336087451546,1044598335763.6864
274,2.3521876408420135,1038438677864.2789
275,2.379454123199158,1032244572071.902
276,2.407036677729808,1026016255212.3705
277,2.43493896833228,1019753975155.7026
278,2.4631647013766855,1013457990964.9852
279,2.4917176261972522,1007128573043.6261
280,2.520601535590371,1001262469482.0181
281,2.549820266318403,995563916371.7673
282,2.579377699619333,989832303770.4333
283,2.609277761722331,984067823499.3433
284,2.639524424369289,978270677338.4147
285,2.670121705342398,972441077170.2072
286,2.701073668997851,966579245122.8939
287,2.7323844268057247,960685413711.9304
288,2.764058137896123,954759825980.3718
289,2.7960990096116487,948802735637.671
290,2.8285112980662865,943342039827.4471
291,2.8612993087107523,937922646804.0302
292,2.8944673969044072,932472108892.3807
293,2.928019968493795,926990615325.1272
294,2.9619614803978895,921478364872.2059
295,2.9962964412001227,915935565976.3734
296,3.0310294117472822,910362436887.5519
297,3.066165005755339,904759205795.8975
298,3.1017078904223103,899126110963.4353
299,3.13766278704822,893463400854.1604
300,3.1740344716622477,887771334262.4513
301,3.2108277756571466,882203982129.642
302,3.248047586431021,876978458931.4216
303,3.2856988480365303,871723853321.1173
304,3.323786561837632,866440369413.6946
305,3.3623157871739315,861128220722.4027
306,3.4012916420327337,855787630284.265
307,3.4407193037288843,850418830784.173
308,3.480604009592498,845022064677.394
309,3.5209510576646443,839869242318.1145
310,3.561765807401114,834941577243.4496
311,3.6030536803843334,829986206326.6693
312,3.6448201610435365,825003315664.584
313,3.68707079738328,819993100158.483
314,3.729811201720413,814955763634.064
315,3.7730470514295735,809891518960.112
316,3.816784089697343,804800588165.8038
317,3.861028126285134,799683202556.4993
318,3.9057850383009236,794539602827.952
319,3.9510607709799306,789370039178.7015
320,3.996861338474353,784174771420.6486
321,4.043192824652238,779530782053.7823
322,4.090061383905637,774903097618.204
323,4.137473241968109,770249720353.8074
324,4.185434696741716,765570832434.2267
325,4.233952119133592,760866624368.7936
326,4.283031953902228,756137295113.3296
327,4.332680720513533,751383052179.6414
328,4.382905014006859,746604111743.6255
329,4.433711505871037,741800698751.8517
330,4.485106944930578,736973047026.5099
331,4.537098158242147,732433056462.3224
332,4.58969205200143,727994707788.2776
333,4.642895612460504,723532273946.5161
334,4.696715906855853,719045942173.5443
335,4.751160084347137,714535907809.4259
336,4.806235376966839,710002374400.7421
337,4.861949100580927,705445553802.116
338,4.9183086558606535,700865666276.2234
339,4.975321529265605,696262940592.1462
340,5.032995294038164,691781658169.8329
341,5.091337611209493,687386069284.6947
342,5.150356230617176,682967943317.3849
343,5.210058991934661,678527494732.5162
344,5.270453825712639,674064946248.8741
345,5.331548754432483,669580528932.7822
346,5.393351893571906,665074482289.5918
347,5.455871452682977,660547054353.2339
348,5.519115736482622,656107638095.6611
349,5.583093145955774,651900315298.6146
350,5.647812179471316,647671671271.853
351,5.7132814339109395,643421916730.4745
352,5.779509605811107,639151270329.1632
353,5.846505492518252,634859958749.78
354,5.9142779933573575,630548216787.1067
355,5.982836110814089,626216287432.6129
356,6.052188951730644,621864421956.1123
357,6.122345728515423,617492879985.2261
358,6.1933157603667714,613101929582.4769
359,6.2651084745108765,608691847319.9115
360,6.337733407454023,604486794401.5879
361,6.4112002062493625,600470578610.2328
362,6.485518629778381,596434955821.7904
363,6.560698550047193,592380147414.5576
364,6.636749953497885,588306382478.6736
365,6.713682942335057,584213897892.7089
366,6.791507735867732,580102938398.1642
367,6.8702346718668315,575973756671.7522
368,6.949874207938386,571826613395.3466
369,7.030436922912644,567661777323.4468
370,7.111933518249313,563520873525.1329
371,7.194374819459073,559604785036.3857
372,7.277771777541569,555670989823.1351
373,7.362135470440075,551719729094.0118
374,7.447477104513029,547751251715.01227
375,7.5338080160226015,543765814274.31305
376,7.62113967264055,539763681144.6156
377,7.709483674971504,535745124542.90576
378,7.798851758093928,531710424587.4887
379,7.889255793118925,527659869352.1965
380,7.980707788767144,523593754917.612
381,8.073219892963921,519790922572.1784
382,8.166804394452948,516045829171.9661
383,8.261473724428635,512284776401.0386
384,8.357240458187388,508508014671.27405
385,8.454117316798039,504715801800.6494
386,8.552117168791645,500908403066.65955
387,8.65125303187084,497086091257.0314
388,8.751538074639054,493249146717.61725
389,8.852985618349727,489397857397.35175
390,8.955609138675838,485532518890.1386
391,9.05942226749994,481819107692.6074
392,9.164438794724905,478215814503.93945
393,9.270672670105718,474598168928.5999
394,9.378138005102468,470966431661.2563
395,9.486849074754828,467320870581.8045
396,9.596820319578258,463661760797.3385
397,9.708066347482221,459989384681.1735
398,9.820601935710574,456304031908.81433
399,9.934442032804501,452605999490.7342
400,10.049601760588192,448929398868.31696
401,10.16609641617754,445285398088.09265
402,10.283941474012089,441629250209.9087
403,10.403152587910588,437961263302.0448
404,10.523745593150343,434281752736.77277
405,10.645736508570678,430591041208.3461
406,10.769141538700776,426889458747.21515
407,10.893977075912199,423177342730.32526
408,11.020259702596338,419481536021.0407
409,11.14800619336713,415914792839.6721
410,11.277233517289288,412337559531.7578
411,11.407958840132354,408750162413.0864
412,11.540199526650948,405152934904.4723
413,11.673973142891326,401546217533.61615
414,11.809297458524787,397930357932.7958
415,11.946190449208078,394305710832.2902
416,12.08467029897118,390869521870.3437
417,12.224755402632745,387549477082.80817
418,12.366464368243573,384219638196.0674
419,12.509816019558375,380880308444.4041
420,12.654829398536217,377531797677.13983
421,12.801523767869925,374174422360.69495
422,12.949918613544842,370808505576.7987
423,13.100033647427194,367434377016.7267
424,13.251888809882564,364052372971.4434
425,13.405504272424556,360662836317.5303
426,13.560900440394322,357266116498.7967
427,13.718097955671057,353862569503.446
428,13.877117699413947,350452557836.6761
429,14.037980794835892,347100652538.64197
430,14.200708610009393,343950684979.0979
431,14.365322760704942,340793287272.6632
432,14.53184511326234,337628778263.3231
433,14.70029778749529,334457482933.79193
434,14.870703159629645,331279732385.1551
435,15.043083865275728,328095863812.2915
436,15.217462802435163,324906220474.9351
437,15.393863134542416,321711151664.30304
438,15.572308293541742,318511012665.1541
439,15.75282198299973,315306164713.1987
440,15.935428181253943,312096974947.7277
441,16.120151144598044,309009693384.4874
442,16.307015410503865,305985465376.85156
443,16.49604580088081,302956293737.55365
444,16.687267425373047,299922518276.53217
445,16.880705684694913,296884484414.82434
446,17.07638627400501,293842543137.02484
447,17.274335186319348,290797050939.07965
448,17.474578715964192,287748369771.3136
449,17.67714346206872,284696866976.60223
450,17.882056332098372,281642915223.59143
451,18.089344545429043,278666461569.8411
452,18.29903563696275,275792664359.0987
453,18.51115746078519,272915706832.59448
454,18.725738193865713,270035933582.29172
455,18.942806339800182,267153694256.23035
456,19.162390732597213,264269343492.81226
457,19.3845205405083,261383240850.27496
458,19.60922526990237,258495750731.29028
459,19.836534769185185,255607242302.59216
460,20.066479232764316,252749828149.62323
461,20.29908920505986,249969861088.1791
462,20.534395584561857,247188777677.80762
463,20.772429627934628,244406936199.0382
464,21.013222954168736,241624699384.1815
465,21.256807548781048,238842434327.08777
466,21.503215768063495,236060512387.8832
467,21.75248034338109,233279309092.60962
468,22.00463438551976,230501579193.64456
469,22.259711389084586,227852117992.96204
470,22.51774523694901,225202928300.5387
471,22.778770204755624,222554367105.00232
472,23.042820965469208,219906795277.50098
473,23.309932593982357,217260577467.06482
474,23.580140571774695,214616081990.97964
475,23.853480791626005,211973680720.13312
476,24.129989562383994,209333748959.28345
477,24.409703613787354,206696665322.2319
478,24.692660101344703,204062811601.86108
479,24.97889661127011,201432572635.0125
480,25.268451165475796,198944977243.14923
481,25.561362226622766,196470692585.89343
482,25.857668703229923,193999034487.596
483,26.157409954842425,191530360392.9568
484,26.460625797260082,189065030614.67523
485,26.76735650782607,186603408202.5583
486,27.077642830777233,184145858807.76175
